# wavelength pathlength
4.500000000000000000e+02 -1.421364865162493551e-01
4.510000000000000000e+02 -1.278462330612746278e-01
4.520000000000000000e+02 -1.140600570788778273e-01
4.530000000000000000e+02 -1.007699825668314508e-01
4.540000000000000000e+02 -8.796803352290798184e-02
4.550000000000000000e+02 -7.564623394487990371e-02
4.560000000000000000e+02 -6.379660783051971373e-02
4.570000000000000000e+02 -5.241117917760027695e-02
4.580000000000000000e+02 -4.148197198389384083e-02
4.590000000000000000e+02 -3.100101024717309001e-02
4.600000000000000000e+02 -2.096031796521052176e-02
4.610000000000000000e+02 -1.135191913577880164e-02
4.620000000000000000e+02 -2.167837756650328046e-03
4.630000000000000000e+02 6.599902174402204856e-03
4.640000000000000000e+02 1.495927665960632147e-02
4.650000000000000000e+02 2.291826170118943864e-02
4.660000000000000000e+02 3.048483330137902181e-02
4.670000000000000000e+02 3.766696746240249388e-02
4.680000000000000000e+02 4.447264018648731942e-02
4.690000000000000000e+02 5.090982747586098034e-02
4.700000000000000000e+02 5.698650533275085445e-02
4.710000000000000000e+02 6.271064975938440977e-02
4.720000000000000000e+02 6.809023675798910047e-02
4.730000000000000000e+02 7.313324233079238068e-02
4.740000000000000000e+02 7.784764248002169762e-02
4.750000000000000000e+02 8.224141320790445686e-02
4.760000000000000000e+02 8.632253051666813337e-02
4.770000000000000000e+02 9.009897040854020211e-02
4.780000000000000000e+02 9.357870888574808255e-02
4.790000000000000000e+02 9.676972195051920800e-02
4.800000000000000000e+02 9.967998560508105343e-02
4.810000000000000000e+02 1.023174758516610244e-01
4.820000000000000000e+02 1.046901686924865960e-01
4.830000000000000000e+02 1.068060401297852152e-01
4.840000000000000000e+02 1.086730661657843294e-01
4.850000000000000000e+02 1.102992228027113719e-01
4.860000000000000000e+02 1.116924860427937899e-01
4.870000000000000000e+02 1.128608318882590306e-01
4.880000000000000000e+02 1.138122363413345411e-01
4.890000000000000000e+02 1.145546754042477688e-01
4.900000000000000000e+02 1.150961250792261747e-01
4.910000000000000000e+02 1.154445613684971922e-01
4.920000000000000000e+02 1.156079602742882406e-01
4.930000000000000000e+02 1.155942977988268228e-01
4.940000000000000000e+02 1.154115499443403442e-01
4.950000000000000000e+02 1.150676927130562938e-01
4.960000000000000000e+02 1.145707021072020215e-01
4.970000000000000000e+02 1.139285541290050718e-01
4.980000000000000000e+02 1.131492247806928780e-01
4.990000000000000000e+02 1.122406900644928179e-01
5.000000000000000000e+02 1.112109259826324081e-01
5.010000000000000000e+02 1.100679085373390820e-01
5.020000000000000000e+02 1.088196137308402728e-01
5.030000000000000000e+02 1.074740175653634278e-01
5.040000000000000000e+02 1.060390960431359525e-01
5.050000000000000000e+02 1.045228251663853775e-01
5.060000000000000000e+02 1.029331809373391082e-01
5.070000000000000000e+02 1.012781393582245643e-01
5.080000000000000000e+02 9.956567643126923439e-02
5.090000000000000000e+02 9.780376815870053808e-02
5.100000000000000000e+02 9.600039054274595030e-02
5.110000000000000000e+02 9.416351958563284885e-02
5.120000000000000000e+02 9.230113128958876423e-02
5.130000000000000000e+02 9.042120165684108812e-02
5.140000000000000000e+02 8.853170668961730938e-02
5.150000000000000000e+02 8.664062239014486133e-02
5.160000000000000000e+02 8.475592476065112180e-02
5.170000000000000000e+02 8.288558980336363513e-02
5.180000000000000000e+02 8.103759352050977915e-02
5.190000000000000000e+02 7.921991191431704271e-02
5.200000000000000000e+02 7.744052098701284526e-02
5.210000000000000000e+02 7.570739674082467563e-02
5.220000000000000000e+02 7.402851517797992553e-02
5.230000000000000000e+02 7.241185230070605605e-02
5.240000000000000000e+02 7.086538411123052827e-02
5.250000000000000000e+02 6.939708661178080329e-02
5.260000000000000000e+02 6.801239744498296935e-02
5.270000000000000000e+02 6.670660081505819239e-02
5.280000000000000000e+02 6.547244256662615447e-02
5.290000000000000000e+02 6.430266854430666257e-02
5.300000000000000000e+02 6.319002459271952366e-02
5.310000000000000000e+02 6.212725655648443368e-02
5.320000000000000000e+02 6.110711028022120656e-02
5.330000000000000000e+02 6.012233160854964925e-02
5.340000000000000000e+02 5.916566638608947160e-02
5.350000000000000000e+02 5.822986045746047362e-02
5.360000000000000000e+02 5.730765966728244148e-02
5.370000000000000000e+02 5.639180986017512665e-02
5.380000000000000000e+02 5.547505688075830832e-02
5.390000000000000000e+02 5.455014657365177266e-02
5.400000000000000000e+02 5.360982478347527114e-02
5.410000000000000000e+02 5.264683735484858990e-02
5.420000000000000000e+02 5.165393013239150122e-02
5.430000000000000000e+02 5.062384896072376350e-02
5.440000000000000000e+02 4.954933968446516290e-02
5.450000000000000000e+02 4.842314814823547864e-02
5.460000000000000000e+02 4.723802019665446911e-02
5.470000000000000000e+02 4.598670167434190659e-02
5.480000000000000000e+02 4.466193842591757723e-02
5.490000000000000000e+02 4.325647629600123945e-02
5.500000000000000000e+02 4.176306112921267938e-02
5.510000000000000000e+02 4.017968121570607287e-02
5.520000000000000000e+02 3.852529462777322389e-02
5.530000000000000000e+02 3.682410188324040934e-02
5.540000000000000000e+02 3.510030349993380899e-02
5.550000000000000000e+02 3.337809999567967895e-02
5.560000000000000000e+02 3.168169188830425448e-02
5.570000000000000000e+02 3.003527969563376740e-02
5.580000000000000000e+02 2.846306393549444258e-02
5.590000000000000000e+02 2.698924512571249448e-02
5.600000000000000000e+02 2.563802378411418961e-02
5.610000000000000000e+02 2.443360042852574590e-02
5.620000000000000000e+02 2.340017557677338128e-02
5.630000000000000000e+02 2.256194974668334144e-02
5.640000000000000000e+02 2.194312345608185819e-02
5.650000000000000000e+02 2.156789722279515292e-02
5.660000000000000000e+02 2.146047156464946440e-02
5.670000000000000000e+02 2.164504699947102095e-02
5.680000000000000000e+02 2.214582404508606134e-02
5.690000000000000000e+02 2.298700321932081042e-02
5.700000000000000000e+02 2.419278504000150001e-02
5.710000000000000000e+02 2.578737002495436192e-02
5.720000000000000000e+02 2.779495869200562796e-02
5.730000000000000000e+02 3.023975155898153341e-02
5.740000000000000000e+02 3.314594914370829620e-02
5.750000000000000000e+02 3.653775196401216896e-02
5.760000000000000000e+02 4.044097816580587146e-02
5.770000000000000000e+02 4.488791640734819677e-02
5.780000000000000000e+02 4.991247297498441204e-02
5.790000000000000000e+02 5.554855415505979832e-02
5.800000000000000000e+02 6.183006623391965051e-02
5.810000000000000000e+02 6.879091549790926352e-02
5.820000000000000000e+02 7.646500823337387676e-02
5.830000000000000000e+02 8.488625072665882676e-02
5.840000000000000000e+02 9.408854926410936681e-02
5.850000000000000000e+02 1.041058101320707363e-01
5.860000000000000000e+02 1.149719396168883134e-01
5.870000000000000000e+02 1.267208440049072959e-01
5.880000000000000000e+02 1.393864295824730204e-01
5.890000000000000000e+02 1.530026026359307678e-01
5.900000000000000000e+02 1.676032694516257360e-01
5.910000000000000000e+02 1.832223363159033447e-01
5.920000000000000000e+02 1.998937095151087640e-01
5.930000000000000000e+02 2.176512953355873581e-01
5.940000000000000000e+02 2.365290000636843248e-01
5.950000000000000000e+02 2.565607299857450285e-01
5.960000000000000000e+02 2.777803913881146669e-01
5.970000000000000000e+02 3.002218905571386598e-01
5.980000000000000000e+02 3.239191337791621494e-01
5.990000000000000000e+02 3.489060273405304446e-01
6.000000000000000000e+02 3.752164775275888542e-01
6.010000000000000000e+02 4.028605216269706135e-01
6.020000000000000000e+02 4.317527209264607757e-01
6.030000000000000000e+02 4.617837677141322650e-01
6.040000000000000000e+02 4.928443542780578390e-01
6.050000000000000000e+02 5.248251729063108106e-01
6.060000000000000000e+02 5.576169158869640485e-01
6.070000000000000000e+02 5.911102755080901439e-01
6.080000000000000000e+02 6.251959440577624649e-01
6.090000000000000000e+02 6.597646138240540470e-01
6.100000000000000000e+02 6.947069770950372591e-01
6.110000000000000000e+02 7.299137261587858028e-01
6.120000000000000000e+02 7.652755533033720470e-01
6.130000000000000000e+02 8.006831508168691380e-01
6.140000000000000000e+02 8.360272109873502222e-01
6.150000000000000000e+02 8.711984261028878906e-01
6.160000000000000000e+02 9.060874884515556227e-01
6.170000000000000000e+02 9.405850903214257874e-01
6.180000000000000000e+02 9.745819240005718642e-01
6.190000000000000000e+02 1.007968681777066333e+00
6.200000000000000000e+02 1.040636055938982452e+00
6.210000000000000000e+02 1.072474738774393144e+00
6.220000000000000000e+02 1.103375422571371445e+00
6.230000000000000000e+02 1.133228799617989946e+00
6.240000000000000000e+02 1.161925562202322126e+00
6.250000000000000000e+02 1.189356402612440577e+00
6.260000000000000000e+02 1.215438323206855742e+00
6.270000000000000000e+02 1.240193566625828803e+00
6.280000000000000000e+02 1.263670685580058128e+00
6.290000000000000000e+02 1.285918232780242310e+00
6.300000000000000000e+02 1.306984760937079271e+00
6.310000000000000000e+02 1.326918822761268268e+00
6.320000000000000000e+02 1.345768970963507005e+00
6.330000000000000000e+02 1.363583758254494072e+00
6.340000000000000000e+02 1.380411737344928724e+00
6.350000000000000000e+02 1.396301460945508222e+00
6.360000000000000000e+02 1.411301481766932042e+00
6.370000000000000000e+02 1.425460352519897889e+00
6.380000000000000000e+02 1.438826625915104795e+00
6.390000000000000000e+02 1.451448854663250909e+00
6.400000000000000000e+02 1.463375591475034598e+00
6.410000000000000000e+02 1.474655389061154898e+00
6.420000000000000000e+02 1.485336800132309287e+00
6.430000000000000000e+02 1.495468377399196802e+00
6.440000000000000000e+02 1.505098673572516255e+00
6.450000000000000000e+02 1.514276241362965569e+00
6.460000000000000000e+02 1.523049633481243115e+00
6.470000000000000000e+02 1.531467402638047703e+00
6.480000000000000000e+02 1.539578101544077482e+00
6.490000000000000000e+02 1.547430282910031263e+00
6.500000000000000000e+02 1.555072499446607415e+00
6.510000000000000000e+02 1.562548792773690298e+00
6.520000000000000000e+02 1.569885160147910463e+00
6.530000000000000000e+02 1.577103087735083564e+00
6.540000000000000000e+02 1.584224061701025477e+00
6.550000000000000000e+02 1.591269568211552743e+00
6.560000000000000000e+02 1.598261093432481239e+00
6.570000000000000000e+02 1.605220123529627285e+00
6.580000000000000000e+02 1.612168144668806979e+00
6.590000000000000000e+02 1.619126643015836642e+00
6.600000000000000000e+02 1.626117104736531260e+00
6.610000000000000000e+02 1.633161015996708709e+00
6.620000000000000000e+02 1.640279862962183755e+00
6.630000000000000000e+02 1.647495131798772938e+00
6.640000000000000000e+02 1.654828308672292803e+00
6.650000000000000000e+02 1.662300879748558780e+00
6.660000000000000000e+02 1.669934331193387855e+00
6.670000000000000000e+02 1.677750149172594796e+00
6.680000000000000000e+02 1.685769819851997031e+00
6.690000000000000000e+02 1.694014829397409994e+00
6.700000000000000000e+02 1.702506663974650003e+00
6.710000000000000000e+02 1.711266809749532936e+00
6.720000000000000000e+02 1.720316752887875555e+00
6.730000000000000000e+02 1.729677979555493295e+00
6.740000000000000000e+02 1.739371975918202473e+00
6.750000000000000000e+02 1.749420228141819855e+00
6.760000000000000000e+02 1.759835496545453681e+00
6.770000000000000000e+02 1.770595638061386756e+00
6.780000000000000000e+02 1.781669783775195581e+00
6.790000000000000000e+02 1.793027064772454882e+00
6.800000000000000000e+02 1.804636612138741603e+00
6.810000000000000000e+02 1.816467556959630913e+00
6.820000000000000000e+02 1.828489030320697761e+00
6.830000000000000000e+02 1.840670163307518870e+00
6.840000000000000000e+02 1.852980087005670295e+00
6.850000000000000000e+02 1.865387932500726542e+00
6.860000000000000000e+02 1.877862830878264555e+00
6.870000000000000000e+02 1.890373913223859281e+00
6.880000000000000000e+02 1.902890310623087000e+00
6.890000000000000000e+02 1.915381154161523547e+00
6.900000000000000000e+02 1.927815574924743425e+00
6.910000000000000000e+02 1.940162703998324467e+00
6.920000000000000000e+02 1.952391672467840955e+00
6.930000000000000000e+02 1.964471611418868724e+00
6.940000000000000000e+02 1.976371651936984053e+00
6.950000000000000000e+02 1.988060925107762333e+00
6.960000000000000000e+02 1.999508562016779623e+00
6.970000000000000000e+02 2.010683693749611756e+00
6.980000000000000000e+02 2.021555451391833458e+00
6.990000000000000000e+02 2.032092966029021675e+00
7.000000000000000000e+02 2.042265368746751797e+00
7.010000000000000000e+02 2.052044423776794524e+00
7.020000000000000000e+02 2.061412427935701785e+00
7.030000000000000000e+02 2.070354311186219931e+00
7.040000000000000000e+02 2.078855003491094422e+00
7.050000000000000000e+02 2.086899434813074272e+00
7.060000000000000000e+02 2.094472535114904499e+00
7.070000000000000000e+02 2.101559234359331896e+00
7.080000000000000000e+02 2.108144462509103700e+00
7.090000000000000000e+02 2.114213149526966706e+00
7.100000000000000000e+02 2.119750225375665931e+00
7.110000000000000000e+02 2.124740620017949944e+00
7.120000000000000000e+02 2.129169263416563762e+00
7.130000000000000000e+02 2.133021085534255068e+00
7.140000000000000000e+02 2.136281016333770655e+00
7.150000000000000000e+02 2.138933985777856428e+00
7.160000000000000000e+02 2.140964923829260069e+00
7.170000000000000000e+02 2.142358760450726152e+00
7.180000000000000000e+02 2.143100425605003245e+00
7.190000000000000000e+02 2.143174849254837255e+00
7.200000000000000000e+02 2.142566961362974531e+00
7.210000000000000000e+02 2.141261691892163199e+00
7.220000000000000000e+02 2.139243970805147832e+00
7.230000000000000000e+02 2.136498728064676556e+00
7.240000000000000000e+02 2.133010893633495275e+00
7.250000000000000000e+02 2.128765397474350785e+00
7.260000000000000000e+02 2.123759252862910341e+00
7.270000000000000000e+02 2.118037806326522610e+00
7.280000000000000000e+02 2.111658487705458054e+00
7.290000000000000000e+02 2.104678726839985359e+00
7.300000000000000000e+02 2.097155953570374987e+00
7.310000000000000000e+02 2.089147597736895623e+00
7.320000000000000000e+02 2.080711089179817730e+00
7.330000000000000000e+02 2.071903857739409993e+00
7.340000000000000000e+02 2.062783333255943763e+00
7.350000000000000000e+02 2.053406945569686393e+00
7.360000000000000000e+02 2.043832124520908788e+00
7.370000000000000000e+02 2.034116299949880524e+00
7.380000000000000000e+02 2.024316901696870730e+00
7.390000000000000000e+02 2.014491359602149867e+00
7.400000000000000000e+02 2.004697103505986622e+00
7.410000000000000000e+02 1.994991563248651012e+00
7.420000000000000000e+02 1.985432168670412389e+00
7.430000000000000000e+02 1.976076349611540772e+00
7.440000000000000000e+02 1.966981535912305290e+00
7.450000000000000000e+02 1.958205157412975961e+00
7.460000000000000000e+02 1.949804643953822358e+00
7.470000000000000000e+02 1.941837425375114279e+00
7.480000000000000000e+02 1.934360931517120186e+00
7.490000000000000000e+02 1.927432592220110985e+00
7.500000000000000000e+02 1.921109837324355807e+00
7.510000000000000000e+02 1.915435650435731940e+00
7.520000000000000000e+02 1.910395230222544871e+00
7.530000000000000000e+02 1.905959329118709800e+00
7.540000000000000000e+02 1.902098699558139705e+00
7.550000000000000000e+02 1.898784093974748455e+00
7.560000000000000000e+02 1.895986264802450583e+00
7.570000000000000000e+02 1.893675964475159290e+00
7.580000000000000000e+02 1.891823945426788667e+00
7.590000000000000000e+02 1.890400960091252580e+00
7.600000000000000000e+02 1.889377760902464898e+00
7.610000000000000000e+02 1.888725100294339709e+00
7.620000000000000000e+02 1.888413730700790438e+00
7.630000000000000000e+02 1.888414404555731396e+00
7.640000000000000000e+02 1.888697874293076007e+00
7.650000000000000000e+02 1.889234892346737915e+00
7.660000000000000000e+02 1.889996211150632099e+00
7.670000000000000000e+02 1.890952583138671095e+00
7.680000000000000000e+02 1.892074760744770101e+00
7.690000000000000000e+02 1.893333496402841876e+00
7.700000000000000000e+02 1.894699542546800508e+00
7.710000000000000000e+02 1.896143651610560088e+00
7.720000000000000000e+02 1.897636576028034483e+00
7.730000000000000000e+02 1.899149068233137339e+00
7.740000000000000000e+02 1.900651880659782966e+00
7.750000000000000000e+02 1.902115765741884568e+00
7.760000000000000000e+02 1.903514180082937157e+00
7.770000000000000000e+02 1.904831396964758117e+00
7.780000000000000000e+02 1.906054393838745753e+00
7.790000000000000000e+02 1.907170148156297929e+00
7.800000000000000000e+02 1.908165637368813394e+00
7.810000000000000000e+02 1.909027838927689791e+00
7.820000000000000000e+02 1.909743730284325425e+00
7.830000000000000000e+02 1.910300288890118603e+00
7.840000000000000000e+02 1.910684492196467632e+00
7.850000000000000000e+02 1.910883317654770153e+00
7.860000000000000000e+02 1.910883742716425804e+00
7.870000000000000000e+02 1.910672744832831116e+00
7.880000000000000000e+02 1.910237301455384840e+00
7.890000000000000000e+02 1.909564390035485726e+00
7.900000000000000000e+02 1.908640988024530971e+00
7.910000000000000000e+02 1.907454072873919770e+00
7.920000000000000000e+02 1.905990622035049542e+00
7.930000000000000000e+02 1.904237612959319037e+00
7.940000000000000000e+02 1.902182023098126118e+00
7.950000000000000000e+02 1.899810829902868869e+00
7.960000000000000000e+02 1.897111010824945820e+00
7.970000000000000000e+02 1.894069543315755277e+00
7.980000000000000000e+02 1.890673404826694881e+00
7.990000000000000000e+02 1.886909572809163604e+00
8.000000000000000000e+02 1.882765024714558644e+00
8.010000000000000000e+02 1.878233023744744878e+00
8.020000000000000000e+02 1.873331976103451257e+00
8.030000000000000000e+02 1.868086573744871526e+00
8.040000000000000000e+02 1.862521508623201649e+00
8.050000000000000000e+02 1.856661472692635373e+00
8.060000000000000000e+02 1.850531157907368440e+00
8.070000000000000000e+02 1.844155256221595041e+00
8.080000000000000000e+02 1.837558459589509585e+00
8.090000000000000000e+02 1.830765459965308040e+00
8.100000000000000000e+02 1.823800949303183483e+00
8.110000000000000000e+02 1.816689619557332103e+00
8.120000000000000000e+02 1.809456162681947644e+00
8.130000000000000000e+02 1.802125270631225851e+00
8.140000000000000000e+02 1.794721635359360912e+00
8.150000000000000000e+02 1.787269948820547460e+00
8.160000000000000000e+02 1.779794902968980796e+00
8.170000000000000000e+02 1.772321189758854665e+00
8.180000000000000000e+02 1.764873501144365253e+00
8.190000000000000000e+02 1.757476529079706085e+00
8.200000000000000000e+02 1.750154965519072237e+00
8.210000000000000000e+02 1.742933502416659008e+00
8.220000000000000000e+02 1.735836831726660590e+00
8.230000000000000000e+02 1.728889645403271835e+00
8.240000000000000000e+02 1.722116635400687823e+00
8.250000000000000000e+02 1.715542493673103186e+00
8.260000000000000000e+02 1.709186380441302111e+00
8.270000000000000000e+02 1.703045328992429663e+00
8.280000000000000000e+02 1.697110840880220017e+00
8.290000000000000000e+02 1.691374417658407570e+00
8.300000000000000000e+02 1.685827560880726717e+00
8.310000000000000000e+02 1.680461772100911855e+00
8.320000000000000000e+02 1.675268552872697381e+00
8.330000000000000000e+02 1.670239404749817469e+00
8.340000000000000000e+02 1.665365829286006738e+00
8.350000000000000000e+02 1.660639328034999362e+00
8.360000000000000000e+02 1.656051402550530627e+00
8.370000000000000000e+02 1.651593554386333595e+00
8.380000000000000000e+02 1.647257285096143109e+00
8.390000000000000000e+02 1.643034096233694452e+00
8.400000000000000000e+02 1.638915489352720689e+00
8.410000000000000000e+02 1.634892966006956883e+00
8.420000000000000000e+02 1.630958027750136985e+00
8.430000000000000000e+02 1.627102176135996281e+00
8.440000000000000000e+02 1.623316912718268501e+00
8.450000000000000000e+02 1.619593739050687820e+00
8.460000000000000000e+02 1.615924156686989077e+00
8.470000000000000000e+02 1.612299667180906670e+00
8.480000000000000000e+02 1.608711772086174774e+00
