# wavelength pathlength
4.500000000000000000e+02 2.171485251191311860e-01
4.510000000000000000e+02 2.575511139445700315e-01
4.520000000000000000e+02 2.979537027700088769e-01
4.530000000000000000e+02 3.383562915954476669e-01
4.540000000000000000e+02 3.787588804208865123e-01
4.550000000000000000e+02 4.191614692463253578e-01
4.560000000000000000e+02 4.595640580717641477e-01
4.570000000000000000e+02 4.999666468972029931e-01
4.580000000000000000e+02 5.403692357226418386e-01
4.590000000000000000e+02 5.807718245480806285e-01
4.600000000000000000e+02 6.211744133735195295e-01
4.610000000000000000e+02 6.615770021989583194e-01
4.620000000000000000e+02 7.019795910243971093e-01
4.630000000000000000e+02 7.423821798498360103e-01
4.640000000000000000e+02 7.827847686752748002e-01
4.650000000000000000e+02 8.231873575007137012e-01
4.660000000000000000e+02 8.635899463261524911e-01
4.670000000000000000e+02 9.039925351515912810e-01
4.680000000000000000e+02 9.443951239770301820e-01
4.690000000000000000e+02 9.847977128024689719e-01
4.700000000000000000e+02 1.025200301627907873e+00
4.710000000000000000e+02 1.040088533377031332e+00
4.720000000000000000e+02 1.054976765126155014e+00
4.730000000000000000e+02 1.069864996875278695e+00
4.740000000000000000e+02 1.084753228624402155e+00
4.750000000000000000e+02 1.099641460373525614e+00
4.760000000000000000e+02 1.114529692122649296e+00
4.770000000000000000e+02 1.129417923871772977e+00
4.780000000000000000e+02 1.144306155620896437e+00
4.790000000000000000e+02 1.159194387370019896e+00
4.800000000000000000e+02 1.174082619119143578e+00
4.810000000000000000e+02 1.188970850868267259e+00
4.820000000000000000e+02 1.203859082617390719e+00
4.830000000000000000e+02 1.218747314366514178e+00
4.840000000000000000e+02 1.233635546115637860e+00
4.850000000000000000e+02 1.248523777864761541e+00
4.860000000000000000e+02 1.263412009613885001e+00
4.870000000000000000e+02 1.278300241363008460e+00
4.880000000000000000e+02 1.293188473112132142e+00
4.890000000000000000e+02 1.308076704861255823e+00
4.900000000000000000e+02 1.322964936610379283e+00
4.910000000000000000e+02 1.330221573764509113e+00
4.920000000000000000e+02 1.337478210918638943e+00
4.930000000000000000e+02 1.344734848072768774e+00
4.940000000000000000e+02 1.351991485226898604e+00
4.950000000000000000e+02 1.359248122381028434e+00
4.960000000000000000e+02 1.366504759535158264e+00
4.970000000000000000e+02 1.373761396689288095e+00
4.980000000000000000e+02 1.381018033843417925e+00
4.990000000000000000e+02 1.388274670997547755e+00
5.000000000000000000e+02 1.395531308151677585e+00
5.010000000000000000e+02 1.402787945305807193e+00
5.020000000000000000e+02 1.410044582459937024e+00
5.030000000000000000e+02 1.417301219614066854e+00
5.040000000000000000e+02 1.424557856768196684e+00
5.050000000000000000e+02 1.431814493922326514e+00
5.060000000000000000e+02 1.439071131076456345e+00
5.070000000000000000e+02 1.446327768230586175e+00
5.080000000000000000e+02 1.453584405384716005e+00
5.090000000000000000e+02 1.460841042538845835e+00
5.100000000000000000e+02 1.468097679692975666e+00
5.110000000000000000e+02 1.446069207767623155e+00
5.120000000000000000e+02 1.424040735842270422e+00
5.130000000000000000e+02 1.402012263916917689e+00
5.140000000000000000e+02 1.379983791991565178e+00
5.150000000000000000e+02 1.357955320066212668e+00
5.160000000000000000e+02 1.335926848140859935e+00
5.170000000000000000e+02 1.313898376215507202e+00
5.180000000000000000e+02 1.291869904290154691e+00
5.190000000000000000e+02 1.269841432364802181e+00
5.200000000000000000e+02 1.247812960439449448e+00
5.210000000000000000e+02 1.225784488514096715e+00
5.220000000000000000e+02 1.203756016588744204e+00
5.230000000000000000e+02 1.181727544663391694e+00
5.240000000000000000e+02 1.159699072738038961e+00
5.250000000000000000e+02 1.137670600812686228e+00
5.260000000000000000e+02 1.115642128887333717e+00
5.270000000000000000e+02 1.093613656961981206e+00
5.280000000000000000e+02 1.071585185036628474e+00
5.290000000000000000e+02 1.049556713111275741e+00
5.300000000000000000e+02 1.027528241185923230e+00
5.310000000000000000e+02 1.023431810081568694e+00
5.320000000000000000e+02 1.019335378977214379e+00
5.330000000000000000e+02 1.015238947872859843e+00
5.340000000000000000e+02 1.011142516768505306e+00
5.350000000000000000e+02 1.007046085664150770e+00
5.360000000000000000e+02 1.002949654559796455e+00
5.370000000000000000e+02 9.988532234554419187e-01
5.380000000000000000e+02 9.947567923510873822e-01
5.390000000000000000e+02 9.906603612467329567e-01
5.400000000000000000e+02 9.865639301423785312e-01
5.410000000000000000e+02 9.824674990380239947e-01
5.420000000000000000e+02 9.783710679336695692e-01
5.430000000000000000e+02 9.742746368293150327e-01
5.440000000000000000e+02 9.701782057249606073e-01
5.450000000000000000e+02 9.660817746206060708e-01
5.460000000000000000e+02 9.619853435162516453e-01
5.470000000000000000e+02 9.578889124118971088e-01
5.480000000000000000e+02 9.537924813075426833e-01
5.490000000000000000e+02 9.496960502031881468e-01
5.500000000000000000e+02 9.455996190988337213e-01
5.510000000000000000e+02 9.488944398596167451e-01
5.520000000000000000e+02 9.521892606203998799e-01
5.530000000000000000e+02 9.554840813811829037e-01
5.540000000000000000e+02 9.587789021419660385e-01
5.550000000000000000e+02 9.620737229027490622e-01
5.560000000000000000e+02 9.653685436635321970e-01
5.570000000000000000e+02 9.686633644243152208e-01
5.580000000000000000e+02 9.719581851850983556e-01
5.590000000000000000e+02 9.752530059458813794e-01
5.600000000000000000e+02 9.785478267066645142e-01
5.610000000000000000e+02 9.818426474674475379e-01
5.620000000000000000e+02 9.851374682282305617e-01
5.630000000000000000e+02 9.884322889890136965e-01
5.640000000000000000e+02 9.917271097497967203e-01
5.650000000000000000e+02 9.950219305105798551e-01
5.660000000000000000e+02 9.983167512713628788e-01
5.670000000000000000e+02 1.001611572032145903e+00
5.680000000000000000e+02 1.004906392792929148e+00
5.690000000000000000e+02 1.008201213553712172e+00
5.700000000000000000e+02 1.011496034314495196e+00
5.710000000000000000e+02 1.051895149276206975e+00
5.720000000000000000e+02 1.092294264237918533e+00
5.730000000000000000e+02 1.132693379199630312e+00
5.740000000000000000e+02 1.173092494161342092e+00
5.750000000000000000e+02 1.213491609123053649e+00
5.760000000000000000e+02 1.253890724084765429e+00
5.770000000000000000e+02 1.294289839046477208e+00
5.780000000000000000e+02 1.334688954008188766e+00
5.790000000000000000e+02 1.375088068969900545e+00
5.800000000000000000e+02 1.415487183931612325e+00
5.810000000000000000e+02 1.455886298893323882e+00
5.820000000000000000e+02 1.496285413855035662e+00
5.830000000000000000e+02 1.536684528816747441e+00
5.840000000000000000e+02 1.577083643778458999e+00
5.850000000000000000e+02 1.617482758740170778e+00
5.860000000000000000e+02 1.657881873701882558e+00
5.870000000000000000e+02 1.698280988663594115e+00
5.880000000000000000e+02 1.738680103625305895e+00
5.890000000000000000e+02 1.779079218587017674e+00
5.900000000000000000e+02 1.819478333548729232e+00
5.910000000000000000e+02 1.964040617873140659e+00
5.920000000000000000e+02 2.108602902197552087e+00
5.930000000000000000e+02 2.253165186521963737e+00
5.940000000000000000e+02 2.397727470846375386e+00
5.950000000000000000e+02 2.542289755170786592e+00
5.960000000000000000e+02 2.686852039495198241e+00
5.970000000000000000e+02 2.831414323819609891e+00
5.980000000000000000e+02 2.975976608144021540e+00
5.990000000000000000e+02 3.120538892468432746e+00
6.000000000000000000e+02 3.265101176792844395e+00
6.010000000000000000e+02 3.409663461117255601e+00
6.020000000000000000e+02 3.554225745441667250e+00
6.030000000000000000e+02 3.698788029766078900e+00
6.040000000000000000e+02 3.843350314090490549e+00
6.050000000000000000e+02 3.987912598414901755e+00
6.060000000000000000e+02 4.132474882739312960e+00
6.070000000000000000e+02 4.277037167063724610e+00
6.080000000000000000e+02 4.421599451388136259e+00
6.090000000000000000e+02 4.566161735712547909e+00
6.100000000000000000e+02 4.710724020036959558e+00
6.110000000000000000e+02 4.871206259414266881e+00
6.120000000000000000e+02 5.031688498791574204e+00
6.130000000000000000e+02 5.192170738168882416e+00
6.140000000000000000e+02 5.352652977546189739e+00
6.150000000000000000e+02 5.513135216923497062e+00
6.160000000000000000e+02 5.673617456300805273e+00
6.170000000000000000e+02 5.834099695678112596e+00
6.180000000000000000e+02 5.994581935055419919e+00
6.190000000000000000e+02 6.155064174432727242e+00
6.200000000000000000e+02 6.315546413810034565e+00
6.210000000000000000e+02 6.476028653187342776e+00
6.220000000000000000e+02 6.636510892564650099e+00
6.230000000000000000e+02 6.796993131941957422e+00
6.240000000000000000e+02 6.957475371319265633e+00
6.250000000000000000e+02 7.117957610696572956e+00
6.260000000000000000e+02 7.278439850073880280e+00
6.270000000000000000e+02 7.438922089451187603e+00
6.280000000000000000e+02 7.599404328828494926e+00
6.290000000000000000e+02 7.759886568205803137e+00
6.300000000000000000e+02 7.920368807583110460e+00
6.310000000000000000e+02 7.999025217522524045e+00
6.320000000000000000e+02 8.077681627461938518e+00
6.330000000000000000e+02 8.156338037401352992e+00
6.340000000000000000e+02 8.234994447340765689e+00
6.350000000000000000e+02 8.313650857280180162e+00
6.360000000000000000e+02 8.392307267219594635e+00
6.370000000000000000e+02 8.470963677159007332e+00
6.380000000000000000e+02 8.549620087098421806e+00
6.390000000000000000e+02 8.628276497037836279e+00
6.400000000000000000e+02 8.706932906977248976e+00
6.410000000000000000e+02 8.785589316916663449e+00
6.420000000000000000e+02 8.864245726856077923e+00
6.430000000000000000e+02 8.942902136795490620e+00
6.440000000000000000e+02 9.021558546734905093e+00
6.450000000000000000e+02 9.100214956674319566e+00
6.460000000000000000e+02 9.178871366613732263e+00
6.470000000000000000e+02 9.257527776553146737e+00
6.480000000000000000e+02 9.336184186492561210e+00
6.490000000000000000e+02 9.414840596431973907e+00
6.500000000000000000e+02 9.493497006371388380e+00
6.510000000000000000e+02 9.555484613174478170e+00
6.520000000000000000e+02 9.617472219977567960e+00
6.530000000000000000e+02 9.679459826780659526e+00
6.540000000000000000e+02 9.741447433583749316e+00
6.550000000000000000e+02 9.803435040386839106e+00
6.560000000000000000e+02 9.865422647189930672e+00
6.570000000000000000e+02 9.927410253993020461e+00
6.580000000000000000e+02 9.989397860796110251e+00
6.590000000000000000e+02 1.005138546759920004e+01
6.600000000000000000e+02 1.011337307440228983e+01
6.610000000000000000e+02 1.017536068120538140e+01
6.620000000000000000e+02 1.023734828800847119e+01
6.630000000000000000e+02 1.029933589481156098e+01
6.640000000000000000e+02 1.036132350161465254e+01
6.650000000000000000e+02 1.042331110841774233e+01
6.660000000000000000e+02 1.048529871522083212e+01
6.670000000000000000e+02 1.054728632202392191e+01
6.680000000000000000e+02 1.060927392882701170e+01
6.690000000000000000e+02 1.067126153563010327e+01
6.700000000000000000e+02 1.073324914243319306e+01
6.710000000000000000e+02 1.082603671555420810e+01
6.720000000000000000e+02 1.091882428867522137e+01
6.730000000000000000e+02 1.101161186179623641e+01
6.740000000000000000e+02 1.110439943491724968e+01
6.750000000000000000e+02 1.119718700803826472e+01
6.760000000000000000e+02 1.128997458115927977e+01
6.770000000000000000e+02 1.138276215428029303e+01
6.780000000000000000e+02 1.147554972740130808e+01
6.790000000000000000e+02 1.156833730052232134e+01
6.800000000000000000e+02 1.166112487364333639e+01
6.810000000000000000e+02 1.175391244676435143e+01
6.820000000000000000e+02 1.184670001988536470e+01
6.830000000000000000e+02 1.193948759300637974e+01
6.840000000000000000e+02 1.203227516612739301e+01
6.850000000000000000e+02 1.212506273924840805e+01
6.860000000000000000e+02 1.221785031236942309e+01
6.870000000000000000e+02 1.231063788549043636e+01
6.880000000000000000e+02 1.240342545861145140e+01
6.890000000000000000e+02 1.249621303173246467e+01
6.900000000000000000e+02 1.258900060485347971e+01
6.910000000000000000e+02 1.264549114523071083e+01
6.920000000000000000e+02 1.270198168560794016e+01
6.930000000000000000e+02 1.275847222598516950e+01
6.940000000000000000e+02 1.281496276636240061e+01
6.950000000000000000e+02 1.287145330673963173e+01
6.960000000000000000e+02 1.292794384711686106e+01
6.970000000000000000e+02 1.298443438749409040e+01
6.980000000000000000e+02 1.304092492787132151e+01
6.990000000000000000e+02 1.309741546824855263e+01
7.000000000000000000e+02 1.315390600862578196e+01
7.010000000000000000e+02 1.321039654900301130e+01
7.020000000000000000e+02 1.326688708938024241e+01
7.030000000000000000e+02 1.332337762975747353e+01
7.040000000000000000e+02 1.337986817013470286e+01
7.050000000000000000e+02 1.343635871051193220e+01
7.060000000000000000e+02 1.349284925088916332e+01
7.070000000000000000e+02 1.354933979126639443e+01
7.080000000000000000e+02 1.360583033164362377e+01
7.090000000000000000e+02 1.366232087202085310e+01
7.100000000000000000e+02 1.371881141239808422e+01
7.110000000000000000e+02 1.372806316491069900e+01
7.120000000000000000e+02 1.373731491742331201e+01
7.130000000000000000e+02 1.374656666993592680e+01
7.140000000000000000e+02 1.375581842244853981e+01
7.150000000000000000e+02 1.376507017496115459e+01
7.160000000000000000e+02 1.377432192747376938e+01
7.170000000000000000e+02 1.378357367998638239e+01
7.180000000000000000e+02 1.379282543249899717e+01
7.190000000000000000e+02 1.380207718501161018e+01
7.200000000000000000e+02 1.381132893752422497e+01
7.210000000000000000e+02 1.382058069003683975e+01
7.220000000000000000e+02 1.382983244254945276e+01
7.230000000000000000e+02 1.383908419506206755e+01
7.240000000000000000e+02 1.384833594757468056e+01
7.250000000000000000e+02 1.385758770008729535e+01
7.260000000000000000e+02 1.386683945259991013e+01
7.270000000000000000e+02 1.387609120511252314e+01
7.280000000000000000e+02 1.388534295762513793e+01
7.290000000000000000e+02 1.389459471013775094e+01
7.300000000000000000e+02 1.390384646265036572e+01
7.310000000000000000e+02 1.387456224537544891e+01
7.320000000000000000e+02 1.384527802810053210e+01
7.330000000000000000e+02 1.381599381082561528e+01
7.340000000000000000e+02 1.378670959355069847e+01
7.350000000000000000e+02 1.375742537627578166e+01
7.360000000000000000e+02 1.372814115900086485e+01
7.370000000000000000e+02 1.369885694172594803e+01
7.380000000000000000e+02 1.366957272445103122e+01
7.390000000000000000e+02 1.364028850717611441e+01
7.400000000000000000e+02 1.361100428990119759e+01
7.410000000000000000e+02 1.358172007262628078e+01
7.420000000000000000e+02 1.355243585535136397e+01
7.430000000000000000e+02 1.352315163807644716e+01
7.440000000000000000e+02 1.349386742080153034e+01
7.450000000000000000e+02 1.346458320352661353e+01
7.460000000000000000e+02 1.343529898625169672e+01
7.470000000000000000e+02 1.340601476897677991e+01
7.480000000000000000e+02 1.337673055170186309e+01
7.490000000000000000e+02 1.334744633442694628e+01
7.500000000000000000e+02 1.331816211715202947e+01
7.510000000000000000e+02 1.332238042067658945e+01
7.520000000000000000e+02 1.332659872420115121e+01
7.530000000000000000e+02 1.333081702772571120e+01
7.540000000000000000e+02 1.333503533125027296e+01
7.550000000000000000e+02 1.333925363477483295e+01
7.560000000000000000e+02 1.334347193829939293e+01
7.570000000000000000e+02 1.334769024182395469e+01
7.580000000000000000e+02 1.335190854534851468e+01
7.590000000000000000e+02 1.335612684887307644e+01
7.600000000000000000e+02 1.336034515239763643e+01
7.610000000000000000e+02 1.336456345592219641e+01
7.620000000000000000e+02 1.336878175944675817e+01
7.630000000000000000e+02 1.337300006297131816e+01
7.640000000000000000e+02 1.337721836649587992e+01
7.650000000000000000e+02 1.338143667002043991e+01
7.660000000000000000e+02 1.338565497354499989e+01
7.670000000000000000e+02 1.338987327706956165e+01
7.680000000000000000e+02 1.339409158059412164e+01
7.690000000000000000e+02 1.339830988411868340e+01
7.700000000000000000e+02 1.340252818764324338e+01
7.710000000000000000e+02 1.342303514572454226e+01
7.720000000000000000e+02 1.344354210380584114e+01
7.730000000000000000e+02 1.346404906188714001e+01
7.740000000000000000e+02 1.348455601996843889e+01
7.750000000000000000e+02 1.350506297804973777e+01
7.760000000000000000e+02 1.352556993613103664e+01
7.770000000000000000e+02 1.354607689421233552e+01
7.780000000000000000e+02 1.356658385229363439e+01
7.790000000000000000e+02 1.358709081037493327e+01
7.800000000000000000e+02 1.360759776845623215e+01
7.810000000000000000e+02 1.362810472653753102e+01
7.820000000000000000e+02 1.364861168461882990e+01
7.830000000000000000e+02 1.366911864270012877e+01
7.840000000000000000e+02 1.368962560078142765e+01
7.850000000000000000e+02 1.371013255886272653e+01
7.860000000000000000e+02 1.373063951694402540e+01
7.870000000000000000e+02 1.375114647502532428e+01
7.880000000000000000e+02 1.377165343310662315e+01
7.890000000000000000e+02 1.379216039118792203e+01
7.900000000000000000e+02 1.381266734926922091e+01
7.910000000000000000e+02 1.380561527104291208e+01
7.920000000000000000e+02 1.379856319281660504e+01
7.930000000000000000e+02 1.379151111459029622e+01
7.940000000000000000e+02 1.378445903636398917e+01
7.950000000000000000e+02 1.377740695813768035e+01
7.960000000000000000e+02 1.377035487991137330e+01
7.970000000000000000e+02 1.376330280168506448e+01
7.980000000000000000e+02 1.375625072345875743e+01
7.990000000000000000e+02 1.374919864523244861e+01
8.000000000000000000e+02 1.374214656700614157e+01
8.010000000000000000e+02 1.373509448877983274e+01
8.020000000000000000e+02 1.372804241055352392e+01
8.030000000000000000e+02 1.372099033232721688e+01
8.040000000000000000e+02 1.371393825410090805e+01
8.050000000000000000e+02 1.370688617587460101e+01
8.060000000000000000e+02 1.369983409764829219e+01
8.070000000000000000e+02 1.369278201942198514e+01
8.080000000000000000e+02 1.368572994119567632e+01
8.090000000000000000e+02 1.367867786296936927e+01
8.100000000000000000e+02 1.367162578474306045e+01
8.110000000000000000e+02 1.365293342476799054e+01
8.120000000000000000e+02 1.363424106479291886e+01
8.130000000000000000e+02 1.361554870481784896e+01
8.140000000000000000e+02 1.359685634484277728e+01
8.150000000000000000e+02 1.357816398486770737e+01
8.160000000000000000e+02 1.355947162489263569e+01
8.170000000000000000e+02 1.354077926491756578e+01
8.180000000000000000e+02 1.352208690494249410e+01
8.190000000000000000e+02 1.350339454496742420e+01
8.200000000000000000e+02 1.348470218499235429e+01
8.210000000000000000e+02 1.346600982501728261e+01
8.220000000000000000e+02 1.344731746504221270e+01
8.230000000000000000e+02 1.342862510506714102e+01
8.240000000000000000e+02 1.340993274509207112e+01
8.250000000000000000e+02 1.339124038511699943e+01
8.260000000000000000e+02 1.337254802514192953e+01
8.270000000000000000e+02 1.335385566516685785e+01
8.280000000000000000e+02 1.333516330519178794e+01
8.290000000000000000e+02 1.331647094521671626e+01
8.300000000000000000e+02 1.329777858524164635e+01
8.310000000000000000e+02 1.328732368636606509e+01
8.320000000000000000e+02 1.327686878749048383e+01
8.330000000000000000e+02 1.326641388861490256e+01
8.340000000000000000e+02 1.325595898973932130e+01
8.350000000000000000e+02 1.324550409086374003e+01
8.360000000000000000e+02 1.323504919198815699e+01
8.370000000000000000e+02 1.322459429311257573e+01
8.380000000000000000e+02 1.321413939423699446e+01
8.390000000000000000e+02 1.320368449536141320e+01
8.400000000000000000e+02 1.319322959648583193e+01
8.410000000000000000e+02 1.318277469761025067e+01
8.420000000000000000e+02 1.317231979873466940e+01
8.430000000000000000e+02 1.316186489985908814e+01
8.440000000000000000e+02 1.315141000098350688e+01
8.450000000000000000e+02 1.314095510210792384e+01
8.460000000000000000e+02 1.313050020323234257e+01
8.470000000000000000e+02 1.312004530435676131e+01
8.480000000000000000e+02 1.310959040548118004e+01
