# wavelength pathlength
4.500000000000000000e+02 -5.173774746813911696e-01
4.510000000000000000e+02 -4.170352879458464890e-01
4.520000000000000000e+02 -3.200135969151466364e-01
4.530000000000000000e+02 -2.262620960348424304e-01
4.540000000000000000e+02 -1.357304797504844396e-01
4.550000000000000000e+02 -4.836844250762422498e-02
4.560000000000000000e+02 3.587432124819034396e-02
4.570000000000000000e+02 1.170481170714041119e-01
4.580000000000000000e+02 1.952032505164693343e-01
4.590000000000000000e+02 2.703900271378340547e-01
4.600000000000000000e+02 3.426587524899482595e-01
4.610000000000000000e+02 4.120597321272596592e-01
4.620000000000000000e+02 4.786432716042196001e-01
4.630000000000000000e+02 5.424596764752755984e-01
4.640000000000000000e+02 6.035592522948771688e-01
4.650000000000000000e+02 6.619923046174736037e-01
4.660000000000000000e+02 7.178091389975146397e-01
4.670000000000000000e+02 7.710600609894490143e-01
4.680000000000000000e+02 8.217953761477259089e-01
4.690000000000000000e+02 8.700653900267947272e-01
4.700000000000000000e+02 9.159204081811045395e-01
4.710000000000000000e+02 9.594107361651044164e-01
4.720000000000000000e+02 1.000586679533243428e+00
4.730000000000000000e+02 1.039498543839971756e+00
4.740000000000000000e+02 1.076196634639737582e+00
4.750000000000000000e+02 1.110731257486990309e+00
4.760000000000000000e+02 1.143152717936179119e+00
4.770000000000000000e+02 1.173511321541753638e+00
4.780000000000000000e+02 1.201857373858163047e+00
4.790000000000000000e+02 1.228241180439856084e+00
4.800000000000000000e+02 1.252713046841282152e+00
4.810000000000000000e+02 1.275323278616890432e+00
4.820000000000000000e+02 1.296122181321130329e+00
4.830000000000000000e+02 1.315160060508450579e+00
4.840000000000000000e+02 1.332487221733301030e+00
4.850000000000000000e+02 1.348153970550130420e+00
4.860000000000000000e+02 1.362210612513387931e+00
4.870000000000000000e+02 1.374707453177522742e+00
4.880000000000000000e+02 1.385694798096984925e+00
4.890000000000000000e+02 1.395222952826222551e+00
4.900000000000000000e+02 1.403342222919685245e+00
4.910000000000000000e+02 1.410102913931822410e+00
4.920000000000000000e+02 1.415555331417082785e+00
4.930000000000000000e+02 1.419749780929916216e+00
4.940000000000000000e+02 1.422736568024771442e+00
4.950000000000000000e+02 1.424565998256098309e+00
4.960000000000000000e+02 1.425288377178344446e+00
4.970000000000000000e+02 1.424954010345960809e+00
4.980000000000000000e+02 1.423613203313395914e+00
4.990000000000000000e+02 1.421316261635098499e+00
5.000000000000000000e+02 1.418113490865518411e+00
5.010000000000000000e+02 1.414055196559105054e+00
5.020000000000000000e+02 1.409191684270307166e+00
5.030000000000000000e+02 1.403573259553573704e+00
5.040000000000000000e+02 1.397250227963354074e+00
5.050000000000000000e+02 1.390272895054097901e+00
5.060000000000000000e+02 1.382691566380254145e+00
5.070000000000000000e+02 1.374556547496271985e+00
5.080000000000000000e+02 1.365918143956600384e+00
5.090000000000000000e+02 1.356826661315688964e+00
5.100000000000000000e+02 1.347332405127986688e+00
5.110000000000000000e+02 1.337485680947942512e+00
5.120000000000000000e+02 1.327336794330006287e+00
5.130000000000000000e+02 1.316936050828626747e+00
5.140000000000000000e+02 1.306333755998253299e+00
5.150000000000000000e+02 1.295580215393335344e+00
5.160000000000000000e+02 1.284725734568321176e+00
5.170000000000000000e+02 1.273820619077660643e+00
5.180000000000000000e+02 1.262915174475803370e+00
5.190000000000000000e+02 1.252059706317197652e+00
5.200000000000000000e+02 1.241304520156293556e+00
5.210000000000000000e+02 1.230699921547539821e+00
5.220000000000000000e+02 1.220296216045385851e+00
5.230000000000000000e+02 1.210143709204280382e+00
5.240000000000000000e+02 1.200292706578673263e+00
5.250000000000000000e+02 1.190793513723013231e+00
5.260000000000000000e+02 1.181679203927769262e+00
5.270000000000000000e+02 1.172913921427490180e+00
5.280000000000000000e+02 1.164444578192743274e+00
5.290000000000000000e+02 1.156218086194097161e+00
5.300000000000000000e+02 1.148181357402119795e+00
5.310000000000000000e+02 1.140281303787378242e+00
5.320000000000000000e+02 1.132464837320441342e+00
5.330000000000000000e+02 1.124678869971877493e+00
5.340000000000000000e+02 1.116870313712254204e+00
5.350000000000000000e+02 1.108986080512139205e+00
5.360000000000000000e+02 1.100973082342101339e+00
5.370000000000000000e+02 1.092778231172707448e+00
5.380000000000000000e+02 1.084348438974526374e+00
5.390000000000000000e+02 1.075630617718126292e+00
5.400000000000000000e+02 1.066571679374074710e+00
5.410000000000000000e+02 1.057118535912939805e+00
5.420000000000000000e+02 1.047218099305289973e+00
5.430000000000000000e+02 1.036817281521692502e+00
5.440000000000000000e+02 1.025862994532715788e+00
5.450000000000000000e+02 1.014302150308928230e+00
5.460000000000000000e+02 1.002081660820897113e+00
5.470000000000000000e+02 9.891484380391910580e-01
5.480000000000000000e+02 9.754493939343776843e-01
5.490000000000000000e+02 9.609314404770251672e-01
5.500000000000000000e+02 9.455414896377015710e-01
5.510000000000000000e+02 9.292759999079179822e-01
5.520000000000000000e+02 9.123296158629581321e-01
5.530000000000000000e+02 8.949465285990492180e-01
5.540000000000000000e+02 8.773709292124178827e-01
5.550000000000000000e+02 8.598470087992911015e-01
5.560000000000000000e+02 8.426189584558961831e-01
5.570000000000000000e+02 8.259309692784596590e-01
5.580000000000000000e+02 8.100272323632086158e-01
5.590000000000000000e+02 7.951519388063698068e-01
5.600000000000000000e+02 7.815492797041705408e-01
5.610000000000000000e+02 7.694634461528376823e-01
5.620000000000000000e+02 7.591386292485977627e-01
5.630000000000000000e+02 7.508190200876780906e-01
5.640000000000000000e+02 7.447488097663055306e-01
5.650000000000000000e+02 7.411721893807070582e-01
5.660000000000000000e+02 7.403333500271095380e-01
5.670000000000000000e+02 7.424764828017399454e-01
5.680000000000000000e+02 7.478457788008252560e-01
5.690000000000000000e+02 7.566854291205923344e-01
5.700000000000000000e+02 7.692396248572681561e-01
5.710000000000000000e+02 7.857525571070795856e-01
5.720000000000000000e+02 8.064684169662538205e-01
5.730000000000000000e+02 8.316313955310175032e-01
5.740000000000000000e+02 8.614856838975977205e-01
5.750000000000000000e+02 8.962754731622214477e-01
5.760000000000000000e+02 9.361942363549707879e-01
5.770000000000000000e+02 9.812325742413506857e-01
5.780000000000000000e+02 1.031330369520720547e+00
5.790000000000000000e+02 1.086427504892440110e+00
5.800000000000000000e+02 1.146463863055869670e+00
5.810000000000000000e+02 1.211379326710368964e+00
5.820000000000000000e+02 1.281113778555297511e+00
5.830000000000000000e+02 1.355607101290015493e+00
5.840000000000000000e+02 1.434799177613882870e+00
5.850000000000000000e+02 1.518629890226258272e+00
5.860000000000000000e+02 1.607039121826503436e+00
5.870000000000000000e+02 1.699966755113976991e+00
5.880000000000000000e+02 1.797352672788039119e+00
5.890000000000000000e+02 1.899136757548049781e+00
5.900000000000000000e+02 2.005258892093368495e+00
5.910000000000000000e+02 2.115658959123355665e+00
5.920000000000000000e+02 2.230276841337369920e+00
5.930000000000000000e+02 2.349052421434772331e+00
5.940000000000000000e+02 2.471925582114922193e+00
5.950000000000000000e+02 2.598836206077180577e+00
5.960000000000000000e+02 2.729724176020905002e+00
5.970000000000000000e+02 2.864529374645457427e+00
5.980000000000000000e+02 3.003191684650196258e+00
5.990000000000000000e+02 3.145650988734482123e+00
6.000000000000000000e+02 3.291847169597674760e+00
6.010000000000000000e+02 3.441673085020061862e+00
6.020000000000000000e+02 3.594833493105648259e+00
6.030000000000000000e+02 3.750986127039364071e+00
6.040000000000000000e+02 3.909788720006141194e+00
6.050000000000000000e+02 4.070899005190910636e+00
6.060000000000000000e+02 4.233974715778607845e+00
6.070000000000000000e+02 4.398673584954158500e+00
6.080000000000000000e+02 4.564653345902498494e+00
6.090000000000000000e+02 4.731571731808559278e+00
6.100000000000000000e+02 4.899086475857268752e+00
6.110000000000000000e+02 5.066855311233563697e+00
6.120000000000000000e+02 5.234535971122372011e+00
6.130000000000000000e+02 5.401786188708627812e+00
6.140000000000000000e+02 5.568263697177261662e+00
6.150000000000000000e+02 5.733626229713204125e+00
6.160000000000000000e+02 5.897531519501390207e+00
6.170000000000000000e+02 6.059637299726746917e+00
6.180000000000000000e+02 6.219601303574209261e+00
6.190000000000000000e+02 6.377081264228708690e+00
6.200000000000000000e+02 6.531734914875174880e+00
6.210000000000000000e+02 6.683219988698541947e+00
6.220000000000000000e+02 6.831194218883739566e+00
6.230000000000000000e+02 6.975315338615700966e+00
6.240000000000000000e+02 7.115241081079355823e+00
6.250000000000000000e+02 7.250629179459638252e+00
6.260000000000000000e+02 7.381222550987398101e+00
6.270000000000000000e+02 7.507104849077173014e+00
6.280000000000000000e+02 7.628444911189419919e+00
6.290000000000000000e+02 7.745411574784591302e+00
6.300000000000000000e+02 7.858173677323148532e+00
6.310000000000000000e+02 7.966900056265545871e+00
6.320000000000000000e+02 8.071759549072236695e+00
6.330000000000000000e+02 8.172920993203682372e+00
6.340000000000000000e+02 8.270553226120338053e+00
6.350000000000000000e+02 8.364825085282658890e+00
6.360000000000000000e+02 8.455905408151103586e+00
6.370000000000000000e+02 8.543963032186121964e+00
6.380000000000000000e+02 8.629166794848179833e+00
6.390000000000000000e+02 8.711685533597727016e+00
6.400000000000000000e+02 8.791688085895222216e+00
6.410000000000000000e+02 8.869343289201122360e+00
6.420000000000000000e+02 8.944819980975882601e+00
6.430000000000000000e+02 9.018286998679959865e+00
6.440000000000000000e+02 9.089913179773809304e+00
6.450000000000000000e+02 9.159867361717889622e+00
6.460000000000000000e+02 9.228318381972657747e+00
6.470000000000000000e+02 9.295435077998565276e+00
6.480000000000000000e+02 9.361386287256074468e+00
6.490000000000000000e+02 9.426340847205636919e+00
6.500000000000000000e+02 9.490467595307713111e+00
6.510000000000000000e+02 9.553927712429247876e+00
6.520000000000000000e+02 9.616851753063166086e+00
6.530000000000000000e+02 9.679362615108876966e+00
6.540000000000000000e+02 9.741583196465793293e+00
6.550000000000000000e+02 9.803636395033327844e+00
6.560000000000000000e+02 9.865645108710895173e+00
6.570000000000000000e+02 9.927732235397906280e+00
6.580000000000000000e+02 9.990020672993770390e+00
6.590000000000000000e+02 1.005263331939791094e+01
6.600000000000000000e+02 1.011569307250972649e+01
6.610000000000000000e+02 1.017932283022863871e+01
6.620000000000000000e+02 1.024364549045405859e+01
6.630000000000000000e+02 1.030878395108539536e+01
6.640000000000000000e+02 1.037486111002206890e+01
6.650000000000000000e+02 1.044199986516348133e+01
6.660000000000000000e+02 1.051032311440905609e+01
6.670000000000000000e+02 1.057995375565819884e+01
6.680000000000000000e+02 1.065101468681032770e+01
6.690000000000000000e+02 1.072362880576484478e+01
6.700000000000000000e+02 1.079791901042117530e+01
6.710000000000000000e+02 1.087400819867872315e+01
6.720000000000000000e+02 1.095201926843690643e+01
6.730000000000000000e+02 1.103207511759513260e+01
6.740000000000000000e+02 1.111429864405281975e+01
6.750000000000000000e+02 1.119881274570937713e+01
6.760000000000000000e+02 1.128567292443028336e+01
6.770000000000000000e+02 1.137466509794528591e+01
6.780000000000000000e+02 1.146550778795019809e+01
6.790000000000000000e+02 1.155791951614082613e+01
6.800000000000000000e+02 1.165161880421299045e+01
6.810000000000000000e+02 1.174632417386249905e+01
6.820000000000000000e+02 1.184175414678516525e+01
6.830000000000000000e+02 1.193762724467680236e+01
6.840000000000000000e+02 1.203366198923322017e+01
6.850000000000000000e+02 1.212957690215022666e+01
6.860000000000000000e+02 1.222509050512364936e+01
6.870000000000000000e+02 1.231992131984928207e+01
6.880000000000000000e+02 1.241378786802295053e+01
6.890000000000000000e+02 1.250640867134046275e+01
6.900000000000000000e+02 1.259750225149762670e+01
6.910000000000000000e+02 1.268678713019026461e+01
6.920000000000000000e+02 1.277398182911417912e+01
6.930000000000000000e+02 1.285880486996518712e+01
6.940000000000000000e+02 1.294097477443909838e+01
6.950000000000000000e+02 1.302021006423172800e+01
6.960000000000000000e+02 1.309622926103888751e+01
6.970000000000000000e+02 1.316875088655638848e+01
6.980000000000000000e+02 1.323749346248004422e+01
6.990000000000000000e+02 1.330217551050566271e+01
7.000000000000000000e+02 1.336251555232906441e+01
7.010000000000000000e+02 1.341830202287066776e+01
7.020000000000000000e+02 1.346960300994934734e+01
7.030000000000000000e+02 1.351655651460858820e+01
7.040000000000000000e+02 1.355930053789187717e+01
7.050000000000000000e+02 1.359797308084269574e+01
7.060000000000000000e+02 1.363271214450453606e+01
7.070000000000000000e+02 1.366365572992087962e+01
7.080000000000000000e+02 1.369094183813521326e+01
7.090000000000000000e+02 1.371470847019102202e+01
7.100000000000000000e+02 1.373509362713178383e+01
7.110000000000000000e+02 1.375223531000099797e+01
7.120000000000000000e+02 1.376627151984213882e+01
7.130000000000000000e+02 1.377734025769869852e+01
7.140000000000000000e+02 1.378557952461416036e+01
7.150000000000000000e+02 1.379112732163200583e+01
7.160000000000000000e+02 1.379412164979573063e+01
7.170000000000000000e+02 1.379470051014880561e+01
7.180000000000000000e+02 1.379300190373472823e+01
7.190000000000000000e+02 1.378916383159698000e+01
7.200000000000000000e+02 1.378332429477904597e+01
7.210000000000000000e+02 1.377562129432441118e+01
7.220000000000000000e+02 1.376619283127656068e+01
7.230000000000000000e+02 1.375517690667898130e+01
7.240000000000000000e+02 1.374271152157515807e+01
7.250000000000000000e+02 1.372893467700857784e+01
7.260000000000000000e+02 1.371398132213401233e+01
7.270000000000000000e+02 1.369797419855140852e+01
7.280000000000000000e+02 1.368103299597198941e+01
7.290000000000000000e+02 1.366327740410699398e+01
7.300000000000000000e+02 1.364482711266765058e+01
7.310000000000000000e+02 1.362580181136518398e+01
7.320000000000000000e+02 1.360632118991083317e+01
7.330000000000000000e+02 1.358650493801582471e+01
7.340000000000000000e+02 1.356647274539139580e+01
7.350000000000000000e+02 1.354634430174876769e+01
7.360000000000000000e+02 1.352623929679917936e+01
7.370000000000000000e+02 1.350627742025385380e+01
7.380000000000000000e+02 1.348657836182403358e+01
7.390000000000000000e+02 1.346726181122094168e+01
7.400000000000000000e+02 1.344844745815580822e+01
7.410000000000000000e+02 1.343025499233987219e+01
7.420000000000000000e+02 1.341280410348435304e+01
7.430000000000000000e+02 1.339621448130048975e+01
7.440000000000000000e+02 1.338060581549950889e+01
7.450000000000000000e+02 1.336609779579264590e+01
7.460000000000000000e+02 1.335281011189112910e+01
7.470000000000000000e+02 1.334086245350619393e+01
7.480000000000000000e+02 1.333037451034906340e+01
7.490000000000000000e+02 1.332146597213097294e+01
7.500000000000000000e+02 1.331425652856315445e+01
7.510000000000000000e+02 1.330883526703452269e+01
7.520000000000000000e+02 1.330516886564473822e+01
7.530000000000000000e+02 1.330319340017115159e+01
7.540000000000000000e+02 1.330284494639109738e+01
7.550000000000000000e+02 1.330405958008193856e+01
7.560000000000000000e+02 1.330677337702100971e+01
7.570000000000000000e+02 1.331092241298566137e+01
7.580000000000000000e+02 1.331644276375323699e+01
7.590000000000000000e+02 1.332327050510109068e+01
7.600000000000000000e+02 1.333134171280655345e+01
7.610000000000000000e+02 1.334059246264699006e+01
7.620000000000000000e+02 1.335095883039973153e+01
7.630000000000000000e+02 1.336237689184213551e+01
7.640000000000000000e+02 1.337478272275154367e+01
7.650000000000000000e+02 1.338811239890529947e+01
7.660000000000000000e+02 1.340230199608075345e+01
7.670000000000000000e+02 1.341728759005524907e+01
7.680000000000000000e+02 1.343300525660613687e+01
7.690000000000000000e+02 1.344939107151075852e+01
7.700000000000000000e+02 1.346638111054645925e+01
7.710000000000000000e+02 1.348391144949059139e+01
7.720000000000000000e+02 1.350191816412050017e+01
7.730000000000000000e+02 1.352033733021352546e+01
7.740000000000000000e+02 1.353910502354701961e+01
7.750000000000000000e+02 1.355815731989832962e+01
7.760000000000000000e+02 1.357742686046025860e+01
7.770000000000000000e+02 1.359683254808746788e+01
7.780000000000000000e+02 1.361628985105007850e+01
7.790000000000000000e+02 1.363571423761820611e+01
7.800000000000000000e+02 1.365502117606196997e+01
7.810000000000000000e+02 1.367412613465149462e+01
7.820000000000000000e+02 1.369294458165689399e+01
7.830000000000000000e+02 1.371139198534829085e+01
7.840000000000000000e+02 1.372938381399580798e+01
7.850000000000000000e+02 1.374683553586955753e+01
7.860000000000000000e+02 1.376366261923966583e+01
7.870000000000000000e+02 1.377978053237624501e+01
7.880000000000000000e+02 1.379510474354941962e+01
7.890000000000000000e+02 1.380955072102931425e+01
7.900000000000000000e+02 1.382303393308603567e+01
7.910000000000000000e+02 1.383546984798971735e+01
7.920000000000000000e+02 1.384677393401046608e+01
7.930000000000000000e+02 1.385686165941840997e+01
7.940000000000000000e+02 1.386564849248366826e+01
7.950000000000000000e+02 1.387304990147635664e+01
7.960000000000000000e+02 1.387898135466659610e+01
7.970000000000000000e+02 1.388335832032450767e+01
7.980000000000000000e+02 1.388609626672020703e+01
7.990000000000000000e+02 1.388711066212381873e+01
8.000000000000000000e+02 1.388631697480545846e+01
8.010000000000000000e+02 1.388365919933299608e+01
8.020000000000000000e+02 1.387919543546527557e+01
8.030000000000000000e+02 1.387301230925889683e+01
8.040000000000000000e+02 1.386519644677045093e+01
8.050000000000000000e+02 1.385583447405653068e+01
8.060000000000000000e+02 1.384501301717374133e+01
8.070000000000000000e+02 1.383281870217866860e+01
8.080000000000000000e+02 1.381933815512791064e+01
8.090000000000000000e+02 1.380465800207806204e+01
8.100000000000000000e+02 1.378886486908571563e+01
8.110000000000000000e+02 1.377204538220747132e+01
8.120000000000000000e+02 1.375428616749992017e+01
8.130000000000000000e+02 1.373567385101966032e+01
8.140000000000000000e+02 1.371629505882328637e+01
8.150000000000000000e+02 1.369623641696738758e+01
8.160000000000000000e+02 1.367558455150856922e+01
8.170000000000000000e+02 1.365442608850341522e+01
8.180000000000000000e+02 1.363284765400853082e+01
8.190000000000000000e+02 1.361093587408050354e+01
8.200000000000000000e+02 1.358877737477593151e+01
8.210000000000000000e+02 1.356645878215140932e+01
8.220000000000000000e+02 1.354406672226353159e+01
8.230000000000000000e+02 1.352168782116889467e+01
8.240000000000000000e+02 1.349940870492409140e+01
8.250000000000000000e+02 1.347731599958571991e+01
8.260000000000000000e+02 1.345548694083114150e+01
8.270000000000000000e+02 1.343396120282080197e+01
8.280000000000000000e+02 1.341276906933591562e+01
8.290000000000000000e+02 1.339194082415769316e+01
8.300000000000000000e+02 1.337150675106735065e+01
8.310000000000000000e+02 1.335149713384609882e+01
8.320000000000000000e+02 1.333194225627515728e+01
8.330000000000000000e+02 1.331287240213573320e+01
8.340000000000000000e+02 1.329431785520904441e+01
8.350000000000000000e+02 1.327630889927629632e+01
8.360000000000000000e+02 1.325887581811871563e+01
8.370000000000000000e+02 1.324204889551750419e+01
8.380000000000000000e+02 1.322585841525388162e+01
8.390000000000000000e+02 1.321033466110906041e+01
8.400000000000000000e+02 1.319550791686425306e+01
8.410000000000000000e+02 1.318140846630067387e+01
8.420000000000000000e+02 1.316806659319953532e+01
8.430000000000000000e+02 1.315551258134205170e+01
8.440000000000000000e+02 1.314377671450943552e+01
8.450000000000000000e+02 1.313288927648290283e+01
8.460000000000000000e+02 1.312288055104366613e+01
8.470000000000000000e+02 1.311378082197293793e+01
8.480000000000000000e+02 1.310562037305193073e+01
